token0_value_5s,token0_value_10s,token0_value_30s,token0_value_60s,token0_value_300s,token0_value_600s,token0_value_1800s,token0_value_3600s
197422696894095,153206459176495,212181466672620,315564911214566,490850944609760,608317867973072,695293077454614,757243023781929
167159106545954,192356744404144,212181466672620,316416817339875,499200059012157,608317867973072,695293077454614,757243023781929
167159106545954,192244173232489,206905507438078,316416817339875,491978200385125,608317867973072,695293077454614,757243023781929
184037297813532,179370756936496,206905507438078,315817749775580,469783554092094,608317867973072,695293077454614,757243023781929
153206459176495,186924065053013,210119178314312,317179262775717,494442944542520,608317867973072,695293077454614,757243023781929
153206459176495,197379939896628,210119178314312,333458255947073,496960660644136,605075647913074,695293077454614,757243023781929
192356744404144,197356253288388,210788988131965,288648461718140,496960660644136,605075647913074,695293077454614,757243023781929
179370756936496,185923288150438,233408929845748,293352741760955,486304206424761,605075647913074,695293077454614,757243023781929
186924065053013,182982822304830,233075486753649,278613584602043,486304206424761,605075647913074,695293077454614,757243023781929
197356253288388,183555481739466,212020258823306,283944056902991,486304206424761,605075647913074,695293077454614,757243023781929
184793789996465,183554662858815,209355240915389,286708399741391,486304206424761,605075647913074,695293077454614,757243023781929
185923288150438,183554662858815,229203195909798,282319673143352,486304206424761,605075647913074,695293077454614,757243023781929
182982822304830,188853736742378,250281404023513,278052335675505,486304206424761,605075647913074,695293077454614,757243023781929
181643786060475,191193636292747,250231061622186,265547898063900,486304206424761,605075647913074,695293077454614,757243023781929
183555481739466,213016614341081,249479974679652,258927822086237,486304206424761,605075647913074,695293077454614,757243023781929
183554662858815,212063216595266,257150916801859,266171085479537,486304206424761,605075647913074,695293077454614,757243023781929
183554662858815,215159206928035,257155611645123,266171085479537,486304206424761,605075647913074,695293077454614,757243023781929
188853736742378,190771913054146,257044422038027,266171085479537,486304206424761,605075647913074,695293077454614,757243023781929
191193636292747,212181466672620,261928012323443,266851401863401,488973806424761,605075647913074,695293077454614,757243023781929
213016614341081,212181466672620,276110316863230,256604574208656,488973806424761,605075647913074,695293077454614,757243023781929
212063216595266,206905507438078,293562896609393,253098669905879,488973806424761,605075647913074,695293077454614,757243023781929
190771913054146,210119178314312,300711847916003,243864243451838,488973806424761,605075647913074,695293077454614,757243023781929
212181466672620,210119178314312,300400142663268,243198634772868,488973806424761,605075647913074,695293077454614,757243023781929
212181466672620,210788988131965,300400142663268,243162909481295,488973806424761,605075647913074,695293077454614,757243023781929
206905507438078,228547298314265,303215017801067,243162909481295,488973806424761,605075647913074,695293077454614,757243023781929
206905507438078,233408929845748,313608364745704,243162909481295,488973806424761,605075647913074,695293077454614,757243023781929
210119178314312,233075486753649,319043821151098,239207688634144,488973806424761,605075647913074,695293077454614,757243023781929
210119178314312,243316537994457,315564911214566,237195782134700,484103216741179,605075647913074,695293077454614,757243023781929
228547298314265,209355240915389,316416817339875,228935229403745,481846788812301,605075647913074,695293077454614,757243023781929
233075486753649,250281404023513,317179262775717,228301422899728,481846788812301,605075647913074,695293077454614,757243023781929
212020258823306,249479974679652,288648461718140,228518405618617,511166278580085,605892030461860,695293077454614,757243023781929
209355240915389,257150916801859,288648461718140,223056796106199,511166278580085,605892030461860,695293077454614,757243023781929
229203195909798,257155611645123,293352741760955,228126734040715,511166278580085,605892030461860,695293077454614,757243023781929
250281404023513,257044422038027,278613584602043,224476223753273,509619720702983,605892030461860,695293077454614,757243023781929
250231061622186,261928012323443,281405865548780,219520104313963,509619720702983,605892030461860,695293077454614,757243023781929
249479974679652,276110316863230,283944056902991,225628160445678,509619720702983,605892030461860,695293077454614,757243023781929
257150916801859,293562896609393,286708399741391,225313122472678,509619720702983,606145011825868,695293077454614,757243023781929
257155611645123,300717326017330,282319673143352,225313122472678,494400865522593,606145011825868,695293077454614,757243023781929
257044422038027,300711847916003,278052335675505,220895083141278,494400865522593,606145011825868,695293077454614,757243023781929
261928012323443,300400142663268,265547898063900,206462567945971,494400865522593,606145011825868,695293077454614,757243023781929
276110316863230,300400142663268,258927822086237,207363538136002,494400865522593,606145011825868,695293077454614,757243023781929
293562896609393,303215017801067,266171085479537,188947110190009,493821128782140,606145011825868,695293077454614,757243023781929
300717326017330,313608364745704,266171085479537,276506877532542,493821128782140,606145011825868,695293077454614,757243023781929
300711847916003,319043821151098,266171085479537,268679850256522,493821128782140,606145011825868,695293077454614,757243023781929
300400142663268,315564911214566,266851401863401,267608196472466,490310405819787,606145011825868,695293077454614,757243023781929
300400142663268,316416817339875,256604574208656,264674059650953,490310405819787,606145011825868,695293077454614,757243023781929
303215017801067,316416817339875,253098669905879,264396209978218,490310405819787,606145011825868,695293077454614,757243023781929
313608364745704,315817749775580,253098669905879,262728836024885,490310405819787,606145011825868,695293077454614,757243023781929
319043821151098,317179262775717,243864243451838,262728836024885,492980005819787,606145011825868,695293077454614,757243023781929
315564911214566,333458255947073,243198634772868,257449316891498,492980005819787,607400644866928,695293077454614,757243023781929
316416817339875,288648461718140,243162909481295,238488711351879,492980005819787,607184075692134,695293077454614,757243023781929
315817749775580,293352741760955,243162909481295,240771978074181,493837888867018,607500860369104,695293077454614,757243023781929
317179262775717,278613584602043,239207688634144,237335363491470,493837888867018,607500860369104,695293077454614,757243023781929
333458255947073,281405865548780,237195782134700,243126633124535,493837888867018,607500860369104,695293077454614,757243023781929
288648461718140,283944056902991,230653768389231,239640567104909,493837888867018,607637077886384,695293077454614,757243023781929
293352741760955,282319673143352,232296278655734,234171130408666,493837888867018,610024017194557,695293077454614,757243023781929
278613584602043,278052335675505,228301422899728,218628627531558,496183528866410,610024017194557,695293077454614,757243023781929
281405865548780,265547898063900,224924923889776,218628627531558,496183528866410,610024017194557,695293077454614,757243023781929
283944056902991,258927822086237,228518405618617,218628627531558,496183528866410,610024017194557,695293077454614,757243023781929
282319673143352,266171085479537,228126734040715,218628627531558,496183528866410,610024017194557,702926347313078,757243023781929
278052335675505,266171085479537,224476223753273,218628627531558,489053298524241,610024017194557,702926347313078,757243023781929
265547898063900,266851401863401,219520104313963,218628627531558,489053298524241,610024017194557,702926347313078,757243023781929
258927822086237,256604574208656,225628160445678,218628627531558,489053298524241,610024017194557,702926347313078,757243023781929
266171085479537,253098669905879,225313122472678,218704539219658,489053298524241,610024017194557,702926347313078,757243023781929
266171085479537,253098669905879,225313122472678,219548164076218,489053298524241,610024017194557,702926347313078,757243023781929
266171085479537,243864243451838,220895083141278,219599601129303,489053298524241,610024017194557,702926347313078,757243023781929
266851401863401,243198634772868,206462567945971,215581193399618,489053298524241,610024017194557,702926347313078,757243023781929
256604574208656,243162909481295,207363538136002,215123797488416,489053298524241,610024017194557,702926347313078,757897696115495
253098669905879,243162909481295,188947110190009,226339288561743,489053298524241,610024017194557,702926347313078,757897696115495
243198634772868,237195782134700,267608196472466,227032441376417,518968111918269,610024017194557,702926347313078,757897696115495
243162909481295,230653768389231,264674059650953,259365983420743,518968111918269,610024017194557,702926347313078,757897696115495
243162909481295,228935229403745,264396209978218,256572289110099,518968111918269,610024017194557,702926347313078,757897696115495
239207688634144,228301422899728,262728836024885,259570990292550,518968111918269,610024017194557,702926347313078,757897696115495
237195782134700,224924923889776,257449316891498,259570990292550,518968111918269,612853329308887,702926347313078,757897696115495
230653768389231,228518405618617,238993782090728,259570990292550,518968111918269,612853329308887,702926347313078,757897696115495
228301422899728,224476223753273,237335363491470,261564436665220,515041870975755,612853329308887,702926347313078,757897696115495
224924923889776,219520104313963,243126633124535,257519500671851,515041870975755,626341005168406,702926347313078,757897696115495
228518405618617,225628160445678,239640567104909,257519500671851,515041870975755,626341005168406,702926347313078,757897696115495
223056796106199,225313122472678,234825802742232,253521475119642,515041870975755,626341005168406,702926347313078,757897696115495
228126734040715,225313122472678,234171130408666,253521475119642,515041870975755,626341005168406,702926347313078,757897696115495
224476223753273,220895083141278,218628627531558,253521475119642,517955056123862,626341005168406,702926347313078,757897696115495
219520104313963,206462567945971,218628627531558,253521475119642,517955056123862,626341005168406,702926347313078,757897696115495
225628160445678,207363538136002,218628627531558,253521475119642,517955056123862,626341005168406,702926347313078,757897696115495
225313122472678,188947110190009,218628627531558,255668321909720,517955056123862,626341005168406,702926347313078,757897696115495
225313122472678,276506877532542,218628627531558,250552735914387,517875460057406,626341005168406,702926347313078,757897696115495
220895083141278,268679850256522,218628627531558,243618118087278,517080843134273,626341005168406,702926347313078,757897696115495
206462567945971,267608196472466,218628627531558,245506616098103,517080843134273,626341005168406,702926347313078,757897696115495
207363538136002,264674059650953,218628627531558,245148954549642,517080843134273,626341005168406,702926347313078,757897696115495
188947110190009,264396209978218,218704539219658,249236820284261,517080843134273,626341005168406,702926347313078,757897696115495
268679850256522,262728836024885,219599601129303,249236820284261,518528471403970,626341005168406,702926347313078,757897696115495
267608196472466,257449316891498,215581193399618,227633866860277,518528471403970,626341005168406,702926347313078,757897696115495
264674059650953,238993782090728,215123797488416,248889478636326,518528471403970,626341005168406,702926347313078,757897696115495
264396209978218,238488711351879,226339288561743,248889478636326,518528471403970,626341005168406,702926347313078,757897696115495
262728836024885,240771978074181,226339288561743,247045171951211,518528471403970,626341005168406,702926347313078,757897696115495
262728836024885,237335363491470,226339288561743,247437174782712,518528471403970,626341005168406,702926347313078,757897696115495
257449316891498,243126633124535,227032441376417,247437174782712,518528471403970,626341005168406,702926347313078,757897696115495
238993782090728,239640567104909,259365983420743,247437174782712,518528471403970,626341005168406,702926347313078,757897696115495
238488711351879,234825802742232,256572289110099,247623180044403,518528471403970,634683186782265,702926347313078,757897696115495
240771978074181,234171130408666,259570990292550,245815690795230,518528471403970,634683186782265,702926347313078,757897696115495
243126633124535,218628627531558,259570990292550,246156532422093,518528471403970,634683186782265,702926347313078,757897696115495
239640567104909,218628627531558,259570990292550,246403126596682,518767117642107,634683186782265,702926347313078,757897696115495
234825802742232,218628627531558,259570990292550,244595463951936,518767117642107,635477803705398,702926347313078,757897696115495
234171130408666,218628627531558,261975931734335,244559581851050,518767117642107,635477803705398,702926347313078,757897696115495
218628627531558,218628627531558,261564436665220,243674842788735,518767117642107,635477803705398,702926347313078,757897696115495
218628627531558,218628627531558,257519500671851,244452313586921,518767117642107,635477803705398,702926347313078,757897696115495
218628627531558,218628627531558,257519500671851,243526815984678,518767117642107,635477803705398,702926347313078,757897696115495
218628627531558,218704539219658,253521475119642,246410745877702,520762411641279,635477803705398,702926347313078,757897696115495
218628627531558,219548164076218,253521475119642,246606764102176,520762411641279,635477803705398,702926347313078,757897696115495
218628627531558,219599601129303,253521475119642,246242526475115,531040209578089,635477803705398,702926347313078,757897696115495
226339288561743,256572289110099,249236820284261,243545940449288,542145780062409,636907439437889,702926347313078,757897696115495
226339288561743,259570990292550,249236820284261,243114038321957,542145780062409,636907439437889,702926347313078,757897696115495
226339288561743,259570990292550,249236820284261,243114038321957,542145780062409,636907439437889,702926347313078,757897696115495
227032441376417,259570990292550,227633866860277,243114038321957,542145780062409,636907439437889,702926347313078,757897696115495
259365983420743,259570990292550,248889478636326,242414196478164,542145780062409,636907439437889,702926347313078,757897696115495
256572289110099,259570990292550,248889478636326,241545046181143,543105983598497,636907439437889,702926347313078,757897696115495
259570990292550,257519500671851,247437174782712,244309646197792,543105983598497,636907439437889,702926347313078,757897696115495
259570990292550,257519500671851,247437174782712,246426902855560,543160819283393,636907439437889,702926347313078,757897696115495
259570990292550,253521475119642,247623180044403,246063261830818,543169108758833,636907439437889,702926347313078,757897696115495
261975931734335,253521475119642,245815690795230,255818549779490,543169108758833,636907439437889,702926347313078,757897696115495
253521475119642,250552735914387,244559581851050,289206534650415,543169108758833,639162818455050,702926347313078,757897696115495
253521475119642,243618118087278,243674842788735,290749762151529,550329297770632,639162818455050,702926347313078,757897696115495
253521475119642,245506616098103,244452313586921,290749762151529,550329297770632,639162818455050,702926347313078,757897696115495
255668321909720,249236820284261,246410745877702,294756622664881,550329297770632,639162818455050,702926347313078,757897696115495
249236820284261,248889478636326,241814824256891,294756622664881,565201815696073,639162818455050,702926347313078,757897696115495
249236820284261,247045171951211,242859479092614,299667103573701,565201815696073,639162818455050,702926347313078,757897696115495
249236820284261,247437174782712,243493664240418,304325977236730,565201815696073,639162818455050,702926347313078,757897696115495
227633866860277,247437174782712,243493664240418,328059912653467,565201815696073,639162818455050,702926347313078,757897696115495
248889478636326,247437174782712,244495919017966,374426773380767,565201815696073,639162818455050,702926347313078,757897696115495
248889478636326,247623180044403,243545940449288,374426773380767,565201815696073,639162818455050,702926347313078,757897696115495
247437174782712,246156532422093,243114038321957,394412717221823,565201815696073,639162818455050,702926347313078,757897696115495
247437174782712,246403126596682,242414196478164,380925041362304,565201815696073,639162818455050,702926347313078,757897696115495
245815690795230,244559581851050,244309646197792,394096001137744,565201815696073,639162818455050,702926347313078,757897696115495
245100075001874,243674842788735,244309646197792,401433173960543,572332046038242,639162818455050,702926347313078,757897696115495
244595463951936,246410745877702,246063261830818,389319204483194,572732204091878,639162818455050,702926347313078,757897696115495
244559581851050,246606764102176,255818549779490,390170536569806,572732204091878,639162818455050,702926347313078,757897696115495
243674842788735,246242526475115,261102164936679,385432505675995,572732204091878,639162818455050,702926347313078,757897696115495
244452313586921,245879364559850,277472134086668,402758863262046,572732204091878,639162818455050,702926347313078,757897696115495
243526815984678,241814824256891,277472134086668,402758863262046,572732204091878,639162818455050,702926347313078,757897696115495
246410745877702,241814824256891,281065559960996,424806203181177,571760757465246,639162818455050,702926347313078,757897696115495
246606764102176,242859479092614,289206534650415,421843157424758,571760757465246,639162818455050,702926347313078,757897696115495
246242526475115,243493664240418,290749762151529,421843157424758,571760757465246,639162818455050,702926347313078,757897696115495
245879364559850,243493664240418,290749762151529,418362292185710,571760757465246,639162818455050,702926347313078,757897696115495
241814824256891,244495919017966,290569188196185,441224971252763,571760757465246,639162818455050,702926347313078,757897696115495
241814824256891,243545940449288,294756622664881,441224971252763,571760757465246,639162818455050,702926347313078,757897696115495
242859479092614,243114038321957,294756622664881,441108663101119,571760757465246,639162818455050,702926347313078,757897696115495
243493664240418,243114038321957,294756622664881,441633266791901,571877065616890,639162818455050,702926347313078,757897696115495
243493664240418,243114038321957,294756622664881,461083921835821,571877065616890,639162818455050,702926347313078,757897696115495
244495919017966,242414196478164,294756622664881,461368653484061,571877065616890,639162818455050,702926347313078,757897696115495
243114038321957,244309646197792,299667103573701,455095634075620,572761213725301,639162818455050,702926347313078,757897696115495
243114038321957,244309646197792,304325977236730,461474273517860,572761213725301,639162818455050,702926347313078,757897696115495
242414196478164,246426902855560,374426773380767,470448051701114,572761213725301,640023438042094,702926347313078,757897696115495
241545046181143,246063261830818,374426773380767,493310730768167,572761213725301,640023438042094,702926347313078,757897696115495
244309646197792,255818549779490,374426773380767,493310730768167,572761213725301,640023438042094,702298120852853,757897696115495
246426902855560,277472134086668,380925041362304,499198554654704,574190609747449,640023438042094,702298120852853,757897696115495
246063261830818,281065559960996,382109785005168,500413802707319,574190609747449,640023438042094,702298120852853,757897696115495
255818549779490,289206534650415,394096001137744,500413802707319,574190609747449,640023438042094,702298120852853,757897696115495
277472134086668,290569188196185,385287916163633,502790995039466,578235545740818,640023438042094,702298120852853,757897696115495
281065559960996,294756622664881,389319204483194,514242316800827,578235545740818,640023438042094,702298120852853,757897696115495
289206534650415,294756622664881,390170536569806,516631891581007,578235545740818,640023438042094,702298120852853,757897696115495
290749762151529,294756622664881,385432505675995,519177059687733,578235545740818,640023438042094,702298120852853,757897696115495
290749762151529,294756622664881,402758863262046,519724406634748,578235545740818,640023438042094,702298120852853,757897696115495
294756622664881,294756622664881,424806203181177,519859445867791,578235545740818,640023438042094,702298120852853,757897696115495
294756622664881,299667103573701,421843157424758,519859445867791,578235545740818,640023438042094,702298120852853,757897696115495
294756622664881,304325977236730,421843157424758,519859445867791,578235545740818,640023438042094,702298120852853,757897696115495
294756622664881,374426773380767,441224971252763,524019020590703,578235545740818,640023438042094,702298120852853,757897696115495
294756622664881,374426773380767,441224971252763,524019020590703,578235545740818,640023438042094,702298120852853,757897696115495
374426773380767,394096001137744,455095634075620,521508070100182,589919969761392,640023438042094,709579343349311,757897696115495
377863387963478,401433173960543,461474273517860,521508070100182,589919969761392,640023438042094,709579343349311,757897696115495
394412717221823,383899932952248,467623318747319,522266235617799,589919969761392,640023438042094,709579343349311,757897696115495
380925041362304,385287916163633,470448051701114,522266235617799,589919969761392,640023438042094,709579343349311,757897696115495
401433173960543,385432505675995,493310730768167,535883996534352,589919969761392,640023438042094,709579343349311,757897696115495
383899932952248,402758863262046,495155037453282,535883996534352,589919969761392,640023438042094,709579343349311,757897696115495
385287916163633,402758863262046,499198554654704,247303856504722,589919969761392,640023438042094,709579343349311,757897696115495
389319204483194,424806203181177,500413802707319,247303856504722,589919969761392,640023438042094,709579343349311,757897696115495
390170536569806,421843157424758,500413802707319,496614658457336,590162012761392,640023438042094,709579343349311,757897696115495
385432505675995,421843157424758,500117792822780,496614658457336,590162012761392,640023438042094,709579343349311,757897696115495
402758863262046,418362292185710,500898414605443,496614658457336,590162012761392,640023438042094,709579343349311,757897696115495
402758863262046,441224971252763,502790995039466,496614658457336,591133459388024,640526797767025,709579343349311,757897696115495
424806203181177,441224971252763,514242316800827,493701473309229,591133459388024,640526797767025,709579343349311,757897696115495
421843157424758,441108663101119,516631891581007,493701473309229,591133459388024,640526797767025,709579343349311,757897696115495
421843157424758,441633266791901,519177059687733,493701473309229,591133459388024,640526797767025,709579343349311,757897696115495
418362292185710,461083921835821,519724406634748,493701473309229,591133459388024,640526797767025,709579343349311,757897696115495
441224971252763,461368653484061,519859445867791,490850944609760,591133459388024,640526797767025,709579343349311,757897696115495
441108663101119,455095634075620,519859445867791,490850944609760,591133459388024,640526797767025,709579343349311,757897696115495
461083921835821,467623318747319,524019020590703,490850944609760,591133459388024,640526797767025,739783284207004,757897696115495
461368653484061,470448051701114,524019020590703,499200059012157,591133459388024,640526797767025,739783284207004,757897696115495
455095634075620,493310730768167,521958909549799,469783554092094,590831363155323,640526797767025,739783284207004,757795736248667
461474273517860,493310730768167,523766572194545,494442944542520,590831363155323,640526797767025,739783284207004,757795736248667
467623318747319,495155037453282,523766572194545,496960660644136,590831363155323,640526797767025,739783284207004,757795736248667
470448051701114,499198554654704,522795090523521,496960660644136,591339925155323,640526797767025,739783284207004,757795736248667
493310730768167,500413802707319,521508070100182,486304206424761,581146122691030,640526797767025,739783284207004,757795736248667
493310730768167,500117792822780,521508070100182,486304206424761,581146122691030,640526797767025,739783284207004,757795736248667
495155037453282,500898414605443,522266235617799,486304206424761,581146122691030,640526797767025,739783284207004,757795736248667
499198554654704,502790995039466,522266235617799,486304206424761,581146122691030,640526797767025,739783284207004,757795736248667
500413802707319,514242316800827,535336835531048,486304206424761,581146122691030,640526797767025,739783284207004,757795736248667
500898414605443,519724406634748,535883996534352,486304206424761,581146122691030,640526797767025,739783284207004,757795736248667
502790995039466,519859445867791,247303856504722,486304206424761,591339925155323,640526797767025,739783284207004,757795736248667
514242316800827,519859445867791,247303856504722,486304206424761,591646611012011,640526797767025,739783284207004,757795736248667
519177059687733,519859445867791,496614658457336,486304206424761,591646611012011,640526797767025,739783284207004,757795736248667
519724406634748,524019020590703,496614658457336,488973806424761,591646611012011,640526797767025,739783284207004,757795736248667
519859445867791,524019020590703,496614658457336,488973806424761,591646611012011,640526797767025,739783284207004,757795736248667
519859445867791,524019020590703,493701473309229,488973806424761,591646611012011,640526797767025,739783284207004,757795736248667
519859445867791,521958909549799,493701473309229,488973806424761,591646611012011,640526797767025,739783284207004,757795736248667
519859445867791,523766572194545,493701473309229,488973806424761,591646611012011,640526797767025,739783284207004,757795736248667
524019020590703,523766572194545,493701473309229,488973806424761,591646611012011,640526797767025,739783284207004,757795736248667
524019020590703,522795090523521,492272077287081,488973806424761,591646611012011,640526797767025,739783284207004,757795736248667
523766572194545,522266235617799,490850944609760,484103216741179,591646611012011,640526797767025,739783284207004,757795736248667
521508070100182,535883996534352,469783554092094,481846788812301,593351994973072,640526797767025,739783284207004,757795736248667
521508070100182,535883996534352,494442944542520,481846788812301,593351994973072,640526797767025,739783284207004,757795736248667
522266235617799,247303856504722,496960660644136,511166278580085,608317867973072,640526797767025,739783284207004,757795736248667
535883996534352,496614658457336,486304206424761,511166278580085,608317867973072,640526797767025,739783284207004,757795736248667
535883996534352,496614658457336,486304206424761,509619720702983,608317867973072,642033970442940,739783284207004,757795736248667
247303856504722,493701473309229,486304206424761,509619720702983,608317867973072,642033970442940,739783284207004,757795736248667
496614658457336,493701473309229,486304206424761,494400865522593,608317867973072,642033970442940,739783284207004,757795736248667
496614658457336,492272077287081,486304206424761,494400865522593,608317867973072,642033970442940,739783284207004,757795736248667
493701473309229,490850944609760,486304206424761,493821128782140,608317867973072,642033970442940,739783284207004,757795736248667
490850944609760,491978200385125,488973806424761,490310405819787,608317867973072,642033970442940,739783284207004,757795736248667
499200059012157,496960660644136,488973806424761,492980005819787,608317867973072,642033970442940,739783284207004,757795736248667
491978200385125,496960660644136,488973806424761,492980005819787,608317867973072,642033970442940,739783284207004,757795736248667
496960660644136,486304206424761,478586358169045,493837888867018,608317867973072,642033970442940,739783284207004,757795736248667
496960660644136,486304206424761,481846788812301,493837888867018,608317867973072,642033970442940,739783284207004,757795736248667
486304206424761,486304206424761,481846788812301,493837888867018,608317867973072,642033970442940,739783284207004,757795736248667
486304206424761,486304206424761,481846788812301,496183528866410,608317867973072,642033970442940,739783284207004,757795736248667
486304206424761,486304206424761,512706656812301,496183528866410,605075647913074,642033970442940,739783284207004,757795736248667
486304206424761,486304206424761,511166278580085,496183528866410,605075647913074,642033970442940,739783284207004,757795736248667
488973806424761,484103216741179,490310405819787,518968111918269,605075647913074,642033970442940,739783284207004,757795736248667
512706656812301,509619720702983,493837888867018,515041870975755,605075647913074,645955556985728,739783284207004,757795736248667
511166278580085,509619720702983,493837888867018,515041870975755,605075647913074,645955556985728,739783284207004,757795736248667
511166278580085,509619720702983,493837888867018,515041870975755,605075647913074,645955556985728,739783284207004,757795736248667
509619720702983,494400865522593,496183528866410,517955056123862,605892030461860,645955556985728,739783284207004,757795736248667
509619720702983,494400865522593,496183528866410,517955056123862,605892030461860,645955556985728,739783284207004,757795736248667
494400865522593,493821128782140,489053298524241,517080843134273,605892030461860,645955556985728,741170887640639,757795736248667
493821128782140,490310405819787,489053298524241,518528471403970,606145011825868,645955556985728,741170887640639,757795736248667
490310405819787,492980005819787,489053298524241,518528471403970,606145011825868,645955556985728,741170887640639,757795736248667
492980005819787,493837888867018,518968111918269,518528471403970,606145011825868,645955556985728,741170887640639,757795736248667
493837888867018,496183528866410,518968111918269,518528471403970,606145011825868,645955556985728,741170887640639,757795736248667
493837888867018,496183528866410,515041870975755,518767117642107,607500860369104,645955556985728,741170887640639,757795736248667
489053298524241,489053298524241,517955056123862,531040209578089,610024017194557,645955556985728,741170887640639,757795736248667
489053298524241,518968111918269,517080843134273,542145780062409,610024017194557,645955556985728,741170887640639,757587763408996
518968111918269,515041870975755,518528471403970,543105983598497,610024017194557,645955556985728,741170887640639,757587763408996
515041870975755,517955056123862,518767117642107,543169108758833,612853329308887,645955556985728,741170887640639,757587763408996
517080843134273,518528471403970,531040209578089,550329297770632,626341005168406,645955556985728,741170887640639,757587763408996
518528471403970,518528471403970,542145780062409,565201815696073,626341005168406,645955556985728,741170887640639,757587763408996
518528471403970,518528471403970,542145780062409,565201815696073,626341005168406,645955556985728,741170887640639,757587763408996
518528471403970,518528471403970,542145780062409,565201815696073,626341005168406,645955556985728,741170887640639,757587763408996
518767117642107,542145780062409,543169108758833,572732204091878,634683186782265,646488021852621,741170887640639,757587763408996
542145780062409,542145780062409,550329297770632,571760757465246,635477803705398,646488021852621,741170887640639,757587763408996
542145780062409,542145780062409,550329297770632,571877065616890,635477803705398,646488021852621,741170887640639,757587763408996
542145780062409,542145780062409,566799908811860,571877065616890,635477803705398,646488021852621,741170887640639,757587763408996
543169108758833,543169108758833,565201815696073,574190609747449,636907439437889,653255320506766,741170887640639,757587763408996
543169108758833,550329297770632,572732204091878,578235545740818,636907439437889,653255320506766,741170887640639,757587763408996
543169108758833,550329297770632,572732204091878,578235545740818,636907439437889,653255320506766,741170887640639,757587763408996
550329297770632,565201815696073,571760757465246,578235545740818,639162818455050,653255320506766,741170887640639,757587763408996
565201815696073,565201815696073,571877065616890,589919969761392,639162818455050,653255320506766,741170887640639,757587763408996
565201815696073,565201815696073,572761213725301,589919969761392,639162818455050,653255320506766,741170887640639,757587763408996
572732204091878,571760757465246,574190609747449,590162012761392,639162818455050,653255320506766,741170887640639,757587763408996
572732204091878,571760757465246,578235545740818,591133459388024,639162818455050,653255320506766,741170887640639,757587763408996
571760757465246,572761213725301,578235545740818,591133459388024,639162818455050,653002341674814,741170887640639,757587763408996
572761213725301,572761213725301,589919969761392,590831363155323,639162818455050,653002341674814,741170887640639,757587763408996
572761213725301,574190609747449,589919969761392,591339925155323,639162818455050,653002341674814,741170887640639,757587763408996
578235545740818,578235545740818,589919969761392,581146122691030,640023438042094,653002341674814,741170887640639,757587763408996
578235545740818,578235545740818,590162012761392,591646611012011,640023438042094,662534084741044,741170887640639,757587763408996
589919969761392,589919969761392,590831363155323,593351994973072,640023438042094,662534084741044,741170887640639,757587763408996
591133459388024,591133459388024,591646611012011,608317867973072,640023438042094,669755943368076,741170887640639,757587763408996
591133459388024,591133459388024,591646611012011,608317867973072,640526797767025,669755943368076,741170887640639,757587763408996
581146122691030,581146122691030,593351994973072,608317867973072,640526797767025,674499550473437,736968476156283,757587763408996
581146122691030,591339925155323,608317867973072,605075647913074,640526797767025,674499550473437,736968476156283,757587763408996
581146122691030,591646611012011,608317867973072,605075647913074,640526797767025,674499550473437,736968476156283,757587763408996
591646611012011,591646611012011,608317867973072,605075647913074,640526797767025,675225461464876,736968476156283,757587763408996
591646611012011,591646611012011,608317867973072,605075647913074,640526797767025,675225461464876,736968476156283,757587763408996
608317867973072,608317867973072,608317867973072,605075647913074,640526797767025,675225461464876,736968476156283,757587763408996
608317867973072,608317867973072,605075647913074,605892030461860,640526797767025,675225461464876,736968476156283,757587763408996
605075647913074,605075647913074,605892030461860,610024017194557,642033970442940,685881915684251,736968476156283,757587763408996
605892030461860,606145011825868,610024017194557,626341005168406,645955556985728,611296252972780,736968476156283,757587763408996
606145011825868,606145011825868,610024017194557,626341005168406,645955556985728,611296252972780,736968476156283,757587763408996
607500860369104,610024017194557,612853329308887,634683186782265,645955556985728,537364519632048,736968476156283,757587763408996
610024017194557,610024017194557,612853329308887,635477803705398,645955556985728,537364519632048,736968476156283,757587763408996
610024017194557,610024017194557,612853329308887,635477803705398,645955556985728,537364519632048,736968476156283,757587763408996
610024017194557,610024017194557,626341005168406,635477803705398,645955556985728,537364519632048,736968476156283,757587763408996
610024017194557,610024017194557,626341005168406,635477803705398,645955556985728,537364519632048,736968476156283,757587763408996
626341005168406,626341005168406,634683186782265,636907439437889,645955556985728,499429348107786,736970871896122,757587763408996
626341005168406,626341005168406,635477803705398,639162818455050,645955556985728,500659713107786,736970871896122,757587763408996
635477803705398,635477803705398,636907439437889,639162818455050,646488021852621,488452500446843,736970871896122,757587763408996
635477803705398,636907439437889,639162818455050,639162818455050,646488021852621,488452500446843,736970871896122,757587763408996
636907439437889,636907439437889,639162818455050,639162818455050,646488021852621,488452500446843,736970871896122,757587763408996
639162818455050,639162818455050,639162818455050,640023438042094,653255320506766,483003956718288,736970871896122,757587763408996
640023438042094,640023438042094,640023438042094,640526797767025,653002341674814,483965659106158,734902643670328,757587763408996
640526797767025,640526797767025,640526797767025,642033970442940,669755943368076,502194781185249,734902643670328,757587763408996
642033970442940,642033970442940,642033970442940,645955556985728,675225461464876,514401993846192,734902643670328,757587763408996
645955556985728,645955556985728,645955556985728,645955556985728,611296252972780,514401993846192,734902643670328,757587763408996
646488021852621,646488021852621,653255320506766,653255320506766,488452500446843,694249387872620,735250729942402,757587763408996
653255320506766,653255320506766,653255320506766,653002341674814,488452500446843,694249387872620,735250729942402,757587763408996
653002341674814,653002341674814,662534084741044,669755943368076,483965659106158,694249387872620,735250729942402,757587763408996
662534084741044,662534084741044,669755943368076,675225461464876,483965659106158,694249387872620,735250729942402,757587763408996
662534084741044,662534084741044,669755943368076,675225461464876,483965659106158,694249387872620,735250729942402,757587763408996
669755943368076,669755943368076,674499550473437,675225461464876,484868423599197,694249387872620,736836301328986,757587763408996
674499550473437,674499550473437,675225461464876,685881915684251,502194781185249,694249387872620,753142423730187,757587763408996
675225461464876,675225461464876,675225461464876,685881915684251,514401993846192,694249387872620,753142423730187,757587763408996
685881915684251,685881915684251,611296252972780,611296252972780,514401993846192,695293077454614,753142423730187,757587763408996
611296252972780,611296252972780,611296252972780,499429348107786,514401993846192,695293077454614,753142423730187,757587763408996
537364519632048,538904897864264,499429348107786,488452500446843,514662155846192,695293077454614,753142423730187,757587763408996
499429348107786,499429348107786,500659713107786,488452500446843,514662155846192,695293077454614,753142423730187,757587763408996
499429348107786,499429348107786,488452500446843,488452500446843,587822480540191,695293077454614,753142423730187,757587763408996
500659713107786,488452500446843,488452500446843,483003956718288,690692291997112,702926347313078,753142423730187,757587763408996
488452500446843,488452500446843,488452500446843,483003956718288,690692291997112,702926347313078,753142423730187,757587763408996
488452500446843,488452500446843,488452500446843,483003956718288,690692291997112,702926347313078,753142423730187,757587763408996
483003956718288,483003956718288,483965659106158,483965659106158,694249387872620,702926347313078,753142423730187,757587763408996
484656794270868,483269190837233,483965659106158,484868423599197,694249387872620,702926347313078,753142423730187,757587763408996
483965659106158,483965659106158,483965659106158,502194781185249,694249387872620,702926347313078,753142423730187,757587763408996
483965659106158,483965659106158,483965659106158,502194781185249,694249387872620,702926347313078,753142423730187,757587763408996
502194781185249,502194781185249,514401993846192,514401993846192,694249387872620,709579343349311,757243023781929,757587763408996
502194781185249,502194781185249,514401993846192,514401993846192,694249387872620,709579343349311,757243023781929,757587763408996
514401993846192,514401993846192,514401993846192,514401993846192,694249387872620,739783284207004,757243023781929,757587763408996
514401993846192,514401993846192,514401993846192,514401993846192,694249387872620,739783284207004,757243023781929,757587763408996
514662155846192,514662155846192,514662155846192,690692291997112,695293077454614,739783284207004,757243023781929,757587763408996
587822480540191,665213500068110,690692291997112,694249387872620,695293077454614,741170887640639,757243023781929,757587763408996
665213500068110,690692291997112,690692291997112,694249387872620,702926347313078,741170887640639,757243023781929,757587763408996
690692291997112,690692291997112,694249387872620,694249387872620,702926347313078,741170887640639,757243023781929,757587763408996
694249387872620,694249387872620,694249387872620,694249387872620,702926347313078,741170887640639,757243023781929,757587763408996
692825834041806,692825834041806,695293077454614,695293077454614,739783284207004,736968476156283,757243023781929,758876734699369
695293077454614,695293077454614,695293077454614,695293077454614,739783284207004,736968476156283,757243023781929,758876734699369
702926347313078,702926347313078,702926347313078,702926347313078,741170887640639,736970871896122,757243023781929,758876734699369
702298120852853,702298120852853,709579343349311,739783284207004,741170887640639,734902643670328,757897696115495,761428148072797
709579343349311,709579343349311,739783284207004,739783284207004,741170887640639,734902643670328,757897696115495,761428148072797
739783284207004,739783284207004,739783284207004,739783284207004,741170887640639,734902643670328,757897696115495,761428148072797
741170887640639,741170887640639,741170887640639,741170887640639,736968476156283,734902643670328,757795736248667,761428148072797
736968476156283,736968476156283,736968476156283,736968476156283,734902643670328,753142423730187,757587763408996,811403380950197
736970871896122,736970871896122,736970871896122,736970871896122,734902643670328,753142423730187,757587763408996,811403380950197
734902643670328,734902643670328,734902643670328,734902643670328,735250729942402,753142423730187,757587763408996,811403380950197
734902643670328,734902643670328,734902643670328,734902643670328,735250729942402,753142423730187,757587763408996,811403380950197
735250729942402,735250729942402,735250729942402,735250729942402,753142423730187,757243023781929,757587763408996,811594276880545
753142423730187,753142423730187,753142423730187,753142423730187,757243023781929,757243023781929,757587763408996,811594276880545
753142423730187,753142423730187,753142423730187,753142423730187,757243023781929,757243023781929,757587763408996,811594276880545
757344835214543,757344835214543,757243023781929,757243023781929,757243023781929,757897696115495,757587763408996,811594276880545
757243023781929,757243023781929,757243023781929,757243023781929,757243023781929,757897696115495,757587763408996,811594276880545
757897696115495,757897696115495,757897696115495,757897696115495,757587763408996,757587763408996,758876734699369,811594276880545
757795736248667,757795736248667,757795736248667,757795736248667,757587763408996,757587763408996,761428148072797,812808886363080
757587763408996,757587763408996,757587763408996,757587763408996,757587763408996,757587763408996,761428148072797,812808886363080
758876734699369,758876734699369,758876734699369,758876734699369,761428148072797,728599201178653,811594276880545,812808886363080
761428148072797,761428148072797,761428148072797,761428148072797,761428148072797,811403380950197,811594276880545,812808886363080
728599201178653,728599201178653,811403380950197,811403380950197,811403380950197,811594276880545,812808886363080,812808886363080
811403380950197,811403380950197,811403380950197,811403380950197,811403380950197,811594276880545,812808886363080,812808886363080
811594276880545,811594276880545,811594276880545,811594276880545,811594276880545,811594276880545,812808886363080,812808886363080
812808886363080,812808886363080,812808886363080,812808886363080,812808886363080,812808886363080,812808886363080,812808886363080
813061865195032,813061865195032,813061865195032,813061865195032,813061865195032,826384671371176,826478476520124,827818870994017
826384671371176,826384671371176,826384671371176,826384671371176,826478476520124,826478476520124,826478476520124,827818870994017
826478476520124,826478476520124,826478476520124,826478476520124,826478476520124,826478476520124,826478476520124,827818870994017
826478476520124,826478476520124,826478476520124,826478476520124,826478476520124,826478476520124,826478476520124,827818870994017
827486979008592,827505583980974,827505583980974,827505583980974,827505583980974,827818870994017,827818870994017,827818870994017
827505583980974,827505583980974,827505583980974,827505583980974,827505583980974,827818870994017,827818870994017,827818870994017
827522861109478,827818870994017,827818870994017,827818870994017,827818870994017,827818870994017,827818870994017,827818870994017
827818870994017,827818870994017,827818870994017,827818870994017,827818870994017,827818870994017,827818870994017,827818870994017
828525483004683,828525483004683,828525483004683,828525483004683,828525483004683,903111145716154,903111145716154,904345210525237
903111145716154,903111145716154,903111145716154,903111145716154,903111145716154,903111145716154,903111145716154,904345210525237
904345210525237,904345210525237,904345210525237,904345210525237,904345210525237,904345210525237,904345210525237,904345210525237
905597111525237,905597111525237,905597111525237,905597111525237,905597111525237,905597111525237,905597111525237,905597111525237
905662941985504,905662941985504,905662941985504,905662941985504,905662941985504,905662941985504,905873487853389,905873487853389
905873487853389,905873487853389,905873487853389,905873487853389,905873487853389,905873487853389,905873487853389,905873487853389
906340108310861,906340108310861,906340108310861,906340108310861,906340108310861,906340108310861,906340108310861,906340108310861
907763662141675,907763662141675,907763662141675,907763662141675,907763662141675,907763662141675,907763662141675,907763662141675
907763662141675,907763662141675,907763662141675,907763662141675,907763662141675,907763662141675,907763662141675,908322294004227
907763662141675,907763662141675,907763662141675,907763662141675,907763662141675,907763662141675,907763662141675,908322294004227
908322294004227,908322294004227,908322294004227,908322294004227,908322294004227,908322294004227,908322294004227,908322294004227
908685455919492,908685455919492,908685455919492,908685455919492,908685455919492,908685455919492,908685455919492,908685455919492
914133999648047,914133999648047,914133999648047,914133999648047,914133999648047,914133999648047,914133999648047,914133999648047
914956300081274,914956300081274,914956300081274,914956300081274,914956300081274,914956300081274,914956300081274,914956300081274
919854130313459,919854130313459,919854130313459,919854130313459,919854130313459,919854130313459,919854130313459,919854130313459
920471092344246,920471092344246,920471092344246,920471092344246,920471092344246,920471092344246,920471092344246,920471092344246
925443180928711,925443180928711,925443180928711,925443180928711,925443180928711,925443180928711,925443180928711,925443180928711
